Time,Pitch (rad),Pitch Rate (rad/s),Velocity (m/s),Desired Velocity,Yaw (°)
0.001,5.156620156177409,0.0,-0.8431,0,0.0
0.002,5.0625430425849425,-0.3940692919106903,0.13004840981843624,0,-3.742884119481571e-07
0.003,5.060038709732706,-0.010490124920973731,0.003451297633979113,0,-3.462248501120097e-07
0.004,5.039675438225573,-0.08529747222648087,0.028142619117409347,0,-3.53981265778797e-07
0.005,5.02276653805627,-0.07082783540288766,0.023350382153111995,0,-3.5506298077774545e-07
0.006,5.005179497212178,-0.07366842441890832,0.024303153931247996,0,-3.5764739484210713e-07
0.007,4.987700727509582,-0.07321489932195228,0.02413424036970123,0,-3.6024062097913867e-07
0.008,4.970198423746371,-0.07331347856452969,0.024187236936157385,0,-3.630242141858512e-07
0.009000000000000001,4.952693129057447,-0.07332600692486241,0.02419514163963846,0,-3.659841197368526e-07
0.010000000000000002,4.935164618455994,-0.07342325351185912,0.02420833976947976,0,-3.6921003051625765e-07
0.011000000000000003,4.917638237585911,-0.07341433251395806,0.024226263494388115,0,-3.725801661342019e-07
0.012000000000000004,4.900101124323278,-0.07345928825474175,0.024239726104591283,0,-3.7615327982079793e-07
0.013000000000000005,4.88253415235901,-0.07358436009168756,0.02424969292429732,0,-3.800332275922613e-07
0.014000000000000005,4.864969808193585,-0.07357335279362509,0.024267829079639376,0,-3.840587166988032e-07
0.015000000000000006,4.847394921832435,-0.07361751183982025,0.02428067147737642,0,-3.882881452753264e-07
0.016000000000000007,4.82979092604266,-0.0737394451293033,0.024290331145332453,0,-3.928223180176567e-07
0.017000000000000008,4.644206255231404,-0.7775346076154623,-0.040326745069515446,0,0.24156437478414275
0.01800000000000001,3.9900381411946517,-2.7389372607115483,0.07888868164680339,0,0.2857745754532918
0.01900000000000001,3.4445762701488403,-2.2842501891222877,-0.031370619505924825,0,0.2999139299290261
0.02000000000000001,2.9246722551696513,-2.1777480152051307,-0.031006871088991663,0,0.28689064547375276
0.02100000000000001,2.437037489006101,-2.0429374824842848,-0.0486188136828063,0,0.2536639901522246
0.022000000000000013,2.0127173814540043,-1.7780233681367617,-0.07096864247796046,0,0.16842798629843755
0.023000000000000013,1.675501161569123,-1.4127281640570435,-0.10672839167106044,0,0.04620409221600432
0.024000000000000014,1.4339427267102305,-1.0118380845759016,-0.12999132489800388,0,-0.04933897116107049
0.025000000000000015,1.2347250777646948,-0.834539990963991,-0.1234627451049754,0,-0.12887968934573518
0.026000000000000016,1.0533554981229916,-0.759799452781621,-0.12300278495310381,0,-0.2689773830272157
0.027000000000000017,0.9473497484981943,-0.4439912770651425,-0.15642481038973455,0,-0.42338615013215514
0.028000000000000018,0.911515955868058,-0.15015211270541567,-0.16680207734523433,0,-0.5785814841884014
0.02900000000000002,0.8874600111165393,-0.10076845186145886,-0.1674370897897298,0,-0.6748216573295291
0.03000000000000002,0.7779458463248031,-0.4585481137439026,-0.13548285862407344,0,-0.7541025367310831
0.03100000000000002,0.6145516450997485,-0.6842501452344952,-0.1284643826584414,0,-0.8407499618948697
0.03200000000000002,0.47221480800566384,-0.5957281504563275,-0.13699291398105126,0,-0.9870273346773275
0.03300000000000002,0.4217249938483485,-0.21112688170009747,-0.1706402414273305,0,-1.132195119059042
0.03400000000000002,0.3927221343795097,-0.1213284923770345,-0.16791049213178438,0,-1.2143910543962482
0.035000000000000024,0.28581511274140603,-0.4467184498596616,-0.1368906406487144,0,-1.2781172137152785
0.036000000000000025,0.10342297858379851,-0.7653785457396658,-0.12127918365337004,0,-1.4009669885443599
0.037000000000000026,-0.0009820812986259236,-0.4374673006417413,-0.15583257309838414,0,-1.5524380954176824
0.03800000000000003,-0.038666400276560715,-0.15787644651036448,-0.1694562303717656,0,-1.7182537180108326
0.03900000000000003,-0.028172682342849805,0.04392065725829086,-0.1774998554341955,0,-1.8656660173799426
0.04000000000000003,-0.017084528087765807,0.04630801894132676,-0.16749241782684038,0,-1.945307701932995
0.04100000000000003,-0.09411175485902686,-0.3230566797104627,-0.13224429216065992,0,-2.039120220576074
0.04200000000000003,-0.20950044822210337,-0.4834708304877188,-0.1381186956984715,0,-2.138256636719341
0.04300000000000003,-0.3128247293722673,-0.4320753740112887,-0.14291572632875274,0,-2.2896936360753144
0.04400000000000003,-0.3258580526430344,-0.05348969526138414,-0.1737983572136564,0,-2.456450255631066
0.04500000000000003,-0.30128208833317827,0.10282813530264781,-0.17655636769406532,0,-2.568841474019645
0.046000000000000034,-0.35041589028130626,-0.20535207989968002,-0.14716515636596217,0,-2.6844161280779506
0.047000000000000035,-0.41750548179369373,-0.2799946869696891,-0.15100612935686417,0,-2.7621522924378414
0.048000000000000036,-0.5513365724726716,-0.5581725317695503,-0.12942657688591336,0,-2.831971935839378
0.04900000000000004,-0.7391337230456256,-0.7890072264886193,-0.11641189223553228,0,-2.993031864461161
0.05000000000000004,-0.8351835792450196,-0.3994314549103249,-0.16678894594065585,0,-3.195826631885047
0.05100000000000004,-0.8743803177200115,-0.16290299919002074,-0.18088537664139384,0,-3.4125593092649678
0.05200000000000004,-0.8525047921207145,0.09176972799575997,-0.18938500956097812,0,-3.6393901029761495
0.05300000000000004,-0.7723388441768823,0.33550698009324725,-0.19548802325485176,0,-3.8661066497611674
0.05400000000000004,-0.6825765841151819,0.3765286494331621,-0.19001828737254864,0,-4.044210400944628
0.05500000000000004,-0.5666707876199149,0.4830393481147365,-0.16980036921843913,0,-4.136793864975724
0.05600000000000004,-0.552182473273566,0.06190323906387074,-0.12544076140197977,0,-4.228417549186404
0.057000000000000044,-0.589581530302465,-0.15875894852292333,-0.12095998233034415,0,-4.347407722240207
0.058000000000000045,-0.615088460560726,-0.1077070033126658,-0.12949261251669464,0,-4.435045032654333
0.059000000000000045,-0.7231063472034237,-0.4532316417697844,-0.10256923409278709,0,-4.535746832205912
0.060000000000000046,-0.7928403717063683,-0.2924512793388793,-0.11808238605811802,0,-4.6851646190118625
0.06100000000000005,-0.7903227034282575,0.01083827186203662,-0.1428939964018515,0,-4.856248122144697
0.06200000000000005,-0.7395140577087851,0.21198606255550315,-0.14769919598704717,0,-5.008984089342919
0.06300000000000004,-0.6899053812378306,0.20723727091755573,-0.13419503765816493,0,-5.101271575272473
0.06400000000000004,-0.7309518123507739,-0.1715107039641373,-0.09951288733440078,0,-5.208521979937537
0.06500000000000004,-0.7564269318979504,-0.10700290245779324,-0.10882865116755569,0,-5.299138505479599
0.06600000000000004,-0.8468145038444572,-0.37735516591809215,-0.0906853296788069,0,-5.384461153879959
0.06700000000000005,-0.9269828259703732,-0.33423798631757984,-0.09447905667842212,0,-5.524856077993131
0.06800000000000005,-0.9263189448821894,0.0032273540278209834,-0.12427337140071079,0,-5.682707443382292
0.06900000000000005,-0.8776321433921843,0.20187039340266577,-0.12496015402810833,0,-5.808933571925059
0.07000000000000005,-0.8332866526119024,0.18511780961551377,-0.10614895772014572,0,-5.877484973200428
0.07100000000000005,-0.871518537368356,-0.15749333734120327,-0.07558185977905775,0,-5.955381813586118
0.07200000000000005,-0.9456274318156397,-0.30761804452123626,-0.08000862404548575,0,-6.0337378658298215
0.07300000000000005,-1.0203556212348932,-0.3087300466929384,-0.08198286753020867,0,-6.147009722997927
0.07400000000000005,-1.027029654678071,-0.025870114921460796,-0.09954338285506677,0,-6.258331538150295
0.07500000000000005,-1.0404793816323903,-0.054782282274505406,-0.08856913497750935,0,-6.319699179297658
0.07600000000000005,-1.1277941250074428,-0.3585115232764907,-0.0629655105870942,0,-6.3734176428179286
0.07700000000000005,-1.2563753936715212,-0.5405363368932189,-0.05001147070873152,0,-6.51518374202449
0.07800000000000006,-1.3127507151025757,-0.23421946946420685,-0.09666784096124675,0,-6.684556978499557
0.07900000000000006,-1.3174906100258168,-0.02238453241063393,-0.10490895941545585,0,-6.8691998524366555
0.08000000000000006,-1.2606696204437977,0.23347732687495332,-0.114090841432022,0,-7.0676177702886545
0.08100000000000006,-1.1541791816455387,0.441095263469986,-0.11790576637647418,0,-7.263121587022788
0.08200000000000006,-1.0033956442530705,0.6238210813306821,-0.11211780407629178,0,-7.376447608303717
0.08300000000000006,-0.889148223458648,0.47155216880365425,-0.07417844772933391,0,-7.493107012964617
0.08400000000000006,-0.7703876279149022,0.49189971765424145,-0.07518529467771991,0,-7.5484006438115
0.08500000000000006,-0.7052721108133243,0.2650947054553484,-0.042447292273707984,0,-7.62518711900239
0.08600000000000006,-0.6970279708349587,0.03728783501278565,-0.04663350782034906,0,-7.64870412826772
0.08700000000000006,-0.7687035484295648,-0.28854353339726224,-0.016640469454152693,0,-7.66373546464078
0.08800000000000006,-0.9192422746875163,-0.6306333517133285,0.002809610212078234,0,-7.716041086906918
0.08900000000000007,-1.0449882167337912,-0.5255936520255484,-0.02005345916988345,0,-7.813146628198533
0.09000000000000007,-1.1118369994601383,-0.27972583456169287,-0.04300927624575901,0,-7.9302064769509135
0.09100000000000007,-1.1144290440081697,-0.013325837894174575,-0.05368107571622309,0,-8.059429240820796
0.09200000000000007,-1.0590095626953338,0.22771917804339323,-0.056872342693041825,0,-8.179411857886153
0.09300000000000007,-0.9958830934982492,0.2616865789046154,-0.04444908369485509,0,-8.242324320194184
0.09400000000000007,-1.0258018090830308,-0.12120312396039212,-0.009633236178406904,0,-8.30985028010933
0.09500000000000007,-1.0543646941413507,-0.11863622942151794,-0.01564788484877469,0,-8.401631010573805
0.09600000000000007,-1.0204609697137212,0.1432728876902187,-0.03329270896141982,0,-8.514232685929368
0.09700000000000007,-0.9708597067816723,0.20828607721848313,-0.03463055221573398,0,-8.588869428309055
0.09800000000000007,-0.9644185560943535,0.024479675324079297,-0.007841517807071277,0,-8.667593784992356
0.09900000000000007,-0.9555049208260122,0.03762966731242593,-0.012363112075376367,0,-8.714802890858675
0.10000000000000007,-1.0157128692097894,-0.2524266811764184,0.014163325501413346,0,-8.788001622733029
0.10100000000000008,-1.0029478628735276,0.05592363425493163,-0.021336400074198,0,-8.905259902984628
0.10200000000000008,-0.9306836089078593,0.30266874668998833,-0.03680597517126752,0,-9.0241174475744
0.10300000000000008,-0.8514393179201166,0.32967083140864073,-0.029398434267496887,0,-9.097146034395777
0.10400000000000008,-0.8192108212145468,0.13150183386290584,-4.0320022388559695e-05,0,-9.175917685983995
0.10500000000000008,-0.7902859354564882,0.12004916981075182,-0.001855737404915167,0,-9.202337866534457
0.10600000000000008,-0.830593226334951,-0.17198329074396274,0.034465100307521854,0,-9.258588643120603
0.10700000000000008,-0.8286807752164003,0.009555759228028982,-0.0013997302204665774,0,-9.35841317816824
0.10800000000000008,-0.7697560001761125,0.2466113158757738,-0.018473989016852543,0,-9.460249983152409
0.10900000000000008,-0.7031261922356145,0.2763766218894948,-0.010983559345544708,0,-9.514380424501875
0.11000000000000008,-0.7075782575455724,-0.021094535621564603,0.019830424712799846,0,-9.595682600577506
0.11100000000000008,-0.6633888799326731,0.1847576082608101,-0.00544295594149917,0,-9.673530531223564
0.11200000000000009,-0.6199539828593299,0.1790835651875839,0.008296489941274701,0,-9.71128475413514
0.11300000000000009,-0.6466418489011508,-0.11363097172707295,0.03530966710004434,0,-9.774640147382954
0.11400000000000009,-0.6237697958482376,0.09618517550944523,0.0057253953849156075,0,-9.852667718383172
0.11500000000000009,-0.586733880026125,0.15358152910383951,0.010851955770425567,0,-9.876268994631006
0.11600000000000009,-0.615002928970916,-0.12129555517307167,0.045961419387428176,0,-9.927667254929228
0.11700000000000009,-0.6139528406134663,0.005773551720452796,0.014370674583404422,0,-10.002630394224562
0.11800000000000009,-0.5886558929461088,0.10581226551037738,0.01251280349526089,0,-10.046147036044013
0.11900000000000009,-0.6301922298060872,-0.17316921467669794,0.0356077333647075,0,-10.110447052995218
0.12000000000000009,-0.6018035732754312,0.11971379245383307,0.007207766433838664,0,-10.202417517788325
0.1210000000000001,-0.5515886106338104,0.20834134949289115,0.005294988115129087,0,-10.252667269667924
0.1220000000000001,-0.5632172092012692,-0.04988298008540426,0.03275230281422903,0,-10.32007669953782
0.1230000000000001,-0.5329562777643008,0.12634884936206103,0.014179562525629824,0,-10.375620097229872
0.1240000000000001,-0.5376261531485317,-0.020187943321317153,0.03079611511680111,0,-10.421904012274567
0.12500000000000008,-0.5785036656144886,-0.16832994412244057,0.036035984480790526,0,-10.459635345993457
0.12600000000000008,-0.6325615400824437,-0.22172789860741024,0.03563442932636059,0,-10.53539197837594
0.12700000000000009,-0.6037179882874266,0.12258251835795511,0.0023852642623868603,0,-10.63606037980637
0.12800000000000009,-0.5412661147229121,0.25746087529483097,0.0025196660580813907,0,-10.696950693869741
0.1290000000000001,-0.5171899157037372,0.09796178469189326,0.030032385900527828,0,-10.757659641670566
0.1300000000000001,-0.5004024125119325,0.06905288075997922,0.030229016327477237,0,-10.775169442578795
0.1310000000000001,-0.55119102157645,-0.21058631479960166,0.06009010197120801,0,-10.813805710978308
0.1320000000000001,-0.5717603555455721,-0.08233809541879325,0.02829380372993892,0,-10.907294730920343
0.1330000000000001,-0.5073499933488251,0.2672157195294685,-0.001728030472511119,0,-11.022296405669755
0.1340000000000001,-0.4219197356443641,0.35032660235973834,-1.2888912432132416e-05,0,-11.09432199428565
0.1350000000000001,-0.35297919914358233,0.28277211505143207,0.0262533024109092,0,-11.140618675445989
0.1360000000000001,-0.33799186779209306,0.06008802697317553,0.03957754142290895,0,-11.187796955773038
0.1370000000000001,-0.35133494552732,-0.055259084181737174,0.04245312140489094,0,-11.210159156777454
0.1380000000000001,-0.4362393574758602,-0.3496269551785207,0.06285836519701916,0,-11.239200045250247
0.1390000000000001,-0.5024216755221752,-0.2693548710107533,0.04295798343438399,0,-11.323678974501581
0.1400000000000001,-0.48756131148345555,0.06453450881945294,0.004936233583075281,0,-11.435994028164801
0.1410000000000001,-0.42113893547968284,0.2718740280001085,0.0004327885210955035,0,-11.531719233820425
0.1420000000000001,-0.33768039717558623,0.34198928212658286,0.014287226306143944,0,-11.573122613233314
0.1430000000000001,-0.32683016802273446,0.04431177029773753,0.0471188397812624,0,-11.637973122585391
0.1440000000000001,-0.2906026850574416,0.1486720122539412,0.03403125570452907,0,-11.664511972063663
0.1450000000000001,-0.33013738878416327,-0.16313859910273254,0.06365431186401531,0,-11.710697885245956
0.1460000000000001,-0.3197108701409324,0.043530852779105095,0.03663650049519698,0,-11.785622570671954
0.1470000000000001,-0.2782710035686446,0.1702829697879401,0.032013698380612896,0,-11.831874820622678
0.1480000000000001,-0.28051555179863086,-0.009626920214533485,0.051648932553272076,0,-11.865905633617512
0.1490000000000001,-0.331444800538934,-0.20895141621694693,0.06082614879166989,0,-11.887575649515
0.1500000000000001,-0.39294546921907175,-0.25159976483155,0.06059697649428604,0,-11.947295722460947
0.1510000000000001,-0.37777175350481523,0.06386632287096522,0.032414229816981124,0,-12.016077960376844
0.1520000000000001,-0.3366290095671509,0.16804954671899572,0.04468054421796243,0,-12.028659414894916
0.1530000000000001,-0.37026344849707954,-0.13736059582163307,0.07759381194342302,0,-12.060304093152137
0.1540000000000001,-0.3864793217456062,-0.06567869396374491,0.05103450920907089,0,-12.12907930116526
0.1550000000000001,-0.337109473521603,0.20228527692553425,0.034909380844448494,0,-12.199458291390677
0.1560000000000001,-0.2755598464003518,0.25087912548203384,0.04357106313102564,0,-12.214551525247069
0.1570000000000001,-0.2870969706065163,-0.04660076081018638,0.07649923098587609,0,-12.248620720377758
0.1580000000000001,-0.2971382730012203,-0.04106424932363501,0.05729238030036891,0,-12.284557561874761
0.1590000000000001,-0.33328711027863817,-0.14733936486419616,0.06323284803401094,0,-12.318011528128913
0.16000000000000011,-0.3671899017442213,-0.13742249207495347,0.058137653859448996,0,-12.387801470691612
0.16100000000000012,-0.31878035783490666,0.1982287042484022,0.03154228667972148,0,-12.471926887539233
0.16200000000000012,-0.2496559510931091,0.28030835823607,0.037080476902576556,0,-12.505873743531303
0.16300000000000012,-0.2541278535989502,-0.01756190894525761,0.06567822417163828,0,-12.554383337598239
0.16400000000000012,-0.2338045962389941,0.08275384257046857,0.05622868005353103,0,-12.578249180744978
0.16500000000000012,-0.28244673159010275,-0.19833043841868975,0.07644114941100007,0,-12.609019776123192
0.16600000000000012,-0.31077988432167925,-0.11472620431147199,0.06025965950895787,0,-12.683337819596018
0.16700000000000012,-0.2581206147650808,0.21442737601703682,0.03249777740205618,0,-12.775033375354225
0.16800000000000012,-0.18479193193285004,0.2964955358239065,0.036595595604092465,0,-12.821418525960365
0.16900000000000012,-0.15802468076090462,0.11026756977074836,0.06221101638016931,0,-12.854986087473216
0.17000000000000012,-0.1696384569081842,-0.04742213313564171,0.07063629903634581,0,-12.878185868937294
0.17100000000000012,-0.22850777988583038,-0.23998627945936446,0.07844334963368493,0,-12.907476415450725
0.17200000000000013,-0.2691110415981432,-0.16506632867464588,0.06860895974179683,0,-12.975633181214759
0.17300000000000013,-0.2324615551716479,0.14827892586470456,0.04031827715953503,0,-13.062048587177227
0.17400000000000013,-0.1680500402465194,0.2598265906260183,0.043753186472340715,0,-13.10792163685461
0.17500000000000013,-0.14285698368643976,0.10405822639381607,0.06834063574265824,0,-13.133437422814485
0.17600000000000013,-0.17196589299063297,-0.11816973391734105,0.0802987517210937,0,-13.159681543147661
0.17700000000000013,-0.20547973641261286,-0.13672798947385398,0.07732482688874077,0,-13.21341136189121
0.17800000000000013,-0.16379670288638043,0.16865646676025978,0.05888051986075154,0,-13.26928081131431
0.17900000000000013,-0.11127835448092452,0.21354481965109612,0.07001382494858759,0,-13.2676356713087
0.18000000000000013,-0.14051179668240993,-0.11603965672324063,0.10486515767630429,0,-13.28377826593768
0.18100000000000013,-0.16526670260740992,-0.1013692438425859,0.08259307619769632,0,-13.33142280046287
0.18200000000000013,-0.12353773408772617,0.16920904136536072,0.06827940363001404,0,-13.379461259023827
0.18300000000000013,-0.08218799562841908,0.167933668142231,0.07747544176959706,0,-13.376443500355661
0.18400000000000014,-0.11932834119773818,-0.1487419005504562,0.10968661036088803,0,-13.39073358588889
0.18500000000000014,-0.14434861540843827,-0.10204821994615447,0.08546324478688958,0,-13.446289330834157
0.18600000000000014,-0.0935092775002315,0.20568225662369483,0.06281187892492011,0,-13.514007369246944
0.18700000000000014,-0.031649029374667695,0.24983815300083104,0.06870868832638526,0,-13.531694181280644
0.18800000000000014,-0.04752525761980978,-0.06241072960067495,0.09682686448861474,0,-13.558412758952086
0.18900000000000014,-0.053644783919830415,-0.025514070908066705,0.08809408726370617,0,-13.587575685594684
0.19000000000000014,-0.06714720059110843,-0.055157114104222735,0.09174227915985464,0,-13.604263021590144
0.19100000000000014,-0.11707259351576203,-0.20297637419685477,0.09912676799200044,0,-13.631746356593013
0.19200000000000014,-0.13435954479372147,-0.07085556921965436,0.08945152477693712,0,-13.681223123675553
0.19300000000000014,-0.0873461974444855,0.18937330002926012,0.07693708134025312,0,-13.730566242158309
0.19400000000000014,-0.03697811993005345,0.20404370918033618,0.08615356047888406,0,-13.725809790573097
0.19500000000000015,-0.06883740139966228,-0.12606263852998278,0.11955205368125148,0,-13.73743895923079
